 Experimental condition #  1
Vol [cm3]               Avg MM [g/mol]        rho [g/cm3]   drho/dt [g/cm3s]        dm/dt [g/s]      mdot_in [g/s]     mdot_out [g/s]   m_gen_surf [g/s]
   0.00000000E+000    1.70306095E+001    2.30618569E-004    0.00000000E+000    0.00000000E+000    2.30618569E-004   -3.62183213E+003   -3.01819363E+000
   1.00000000E-002    1.69577306E+001    2.29631794E-004    4.48503001E-014    4.48503001E-014    2.30618569E-004    2.30618564E-004   -4.66331292E-015
   2.00000000E-002    1.68956473E+001    2.28791868E-004    8.30182158E-015    8.30182158E-015    2.30618569E-004    2.30618572E-004    1.99624802E-015
   3.00000000E-002    1.68406640E+001    2.28047809E-004    3.14309679E-014    3.14309679E-014    2.30618569E-004    2.30618568E-004   -7.40526151E-016
   4.00000000E-002    1.67908013E+001    2.27373565E-004   -1.01198432E-014   -1.01198432E-014    2.30618569E-004    2.30618564E-004   -4.48352322E-015
   5.00000000E-002    1.67448624E+001    2.26752195E-004   -3.86185036E-014   -3.86185036E-014    2.30618569E-004    2.30618566E-004   -2.99641114E-015
   6.00000000E-002    1.67020617E+001    2.26173606E-004    2.80544963E-015    2.80544963E-015    2.30618569E-004    2.30618573E-004    3.33498719E-015
   7.00000000E-002    1.66618509E+001    2.25627963E-004    8.73384161E-015    8.73384161E-015    2.30618569E-004    2.30618558E-004   -8.99333073E-015
   8.00000000E-002    1.66238292E+001    2.25113074E-004   -1.49560734E-013   -1.49560734E-013    2.30618569E-004    2.30618566E-004   -3.24296314E-015
   9.00000000E-002    1.65876929E+001    2.24623697E-004   -2.24331565E-014   -2.24331565E-014    2.30618569E-004    2.30618562E-004   -6.47823956E-015
   1.00000000E-001    1.65532046E+001    2.24156780E-004    3.40966145E-013    3.40966145E-013    2.30618569E-004    2.30618572E-004    2.62352798E-015
   1.10000000E-001    1.65201743E+001    2.23708987E-004    1.29257398E-013    1.29257398E-013    2.30618569E-004    2.30618564E-004   -4.10890138E-015
   1.20000000E-001    1.64884471E+001    2.23279613E-004    1.87745573E-013    1.87745573E-013    2.30618569E-004    2.30618576E-004    6.15180060E-015
   1.30000000E-001    1.64578942E+001    2.22866332E-004   -6.17856719E-013   -6.17856719E-013    2.30618569E-004    2.30618561E-004   -7.63511110E-015
   1.40000000E-001    1.64284075E+001    2.22467963E-004   -2.30128064E-013   -2.30128064E-013    2.30618569E-004    2.30618568E-004   -1.58607119E-015
   1.50000000E-001    1.63998943E+001    2.22082345E-004    1.82352124E-013    1.82352124E-013    2.30618569E-004    2.30618569E-004    4.61978536E-017
   1.60000000E-001    1.63722753E+001    2.21708876E-004    2.20434087E-013    2.20434087E-013    2.30618569E-004    2.30618571E-004    1.49061836E-015
   1.70000000E-001    1.63454811E+001    2.21346915E-004   -2.21216563E-013   -2.21216563E-013    2.30618569E-004    2.30618572E-004    1.70477350E-015
   1.80000000E-001    1.63194511E+001    2.20994713E-004    5.96076458E-013    5.96076458E-013    2.30618569E-004    2.30618568E-004   -4.56800878E-016
   1.90000000E-001    1.62941317E+001    2.20651968E-004    1.23957504E-014    1.23957504E-014    2.30618569E-004    2.30618573E-004    3.09000231E-015
   2.00000000E-001    1.62694754E+001    2.20318730E-004    3.12501954E-013    3.12501954E-013    2.30618569E-004    2.30618572E-004    2.30518548E-015
   2.10000000E-001    1.62454395E+001    2.19993588E-004   -6.54623247E-013   -6.54623247E-013    2.30618569E-004    2.30618563E-004   -5.79230180E-015
   2.20000000E-001    1.62219859E+001    2.19675638E-004    4.53951762E-014    4.53951762E-014    2.30618569E-004    2.30618573E-004    2.94714170E-015
   2.30000000E-001    1.61990801E+001    2.19365279E-004    1.31727830E-013    1.31727830E-013    2.30618569E-004    2.30618567E-004   -1.58248411E-015
   2.40000000E-001    1.61766908E+001    2.19063927E-004    7.00407904E-014    7.00407904E-014    2.30618569E-004    2.30618574E-004    4.25903724E-015
   2.50000000E-001    1.61547896E+001    2.18769218E-004   -5.80756306E-014   -5.80756306E-014    2.30618569E-004    2.30618570E-004    6.62164428E-016
   2.60000000E-001    1.61333505E+001    2.18478761E-004    2.25763085E-013    2.25763085E-013    2.30618569E-004    2.30618568E-004   -4.56030171E-016
   2.70000000E-001    1.61123497E+001    2.18194993E-004   -1.55189774E-013   -1.55189774E-013    2.30618569E-004    2.30618568E-004   -1.23735496E-015
   2.80000000E-001    1.60917653E+001    2.17916839E-004   -5.97820540E-013   -5.97820540E-013    2.30618569E-004    2.30618567E-004   -2.11116458E-015
   2.90000000E-001    1.60715772E+001    2.17644029E-004   -9.05329090E-013   -9.05329090E-013    2.30618569E-004    2.30618565E-004   -4.67089061E-015
   3.00000000E-001    1.60517669E+001    2.17376305E-004   -8.72312287E-013   -8.72312287E-013    2.30618569E-004    2.30618562E-004   -6.54442424E-015
   3.10000000E-001    1.60323169E+001    2.17113420E-004    1.33015224E-013    1.33015224E-013    2.30618569E-004    2.30618569E-004   -3.59645951E-016
   3.20000000E-001    1.60132115E+001    2.16855175E-004   -2.32474485E-013   -2.32474485E-013    2.30618569E-004    2.30618566E-004   -3.21394167E-015
   3.30000000E-001    1.59944356E+001    2.16600774E-004   -3.92342748E-013   -3.92342748E-013    2.30618569E-004    2.30618573E-004    2.57429763E-015
   3.40000000E-001    1.59759754E+001    2.16350649E-004    1.09281749E-012    1.09281749E-012    2.30618569E-004    2.30618576E-004    6.79740313E-015
   3.50000000E-001    1.59578179E+001    2.16104637E-004    5.78865603E-013    5.78865603E-013    2.30618569E-004    2.30618568E-004   -8.51695325E-016
   3.60000000E-001    1.59399511E+001    2.15862581E-004    2.75096242E-013    2.75096242E-013    2.30618569E-004    2.30618571E-004    1.39768705E-015
   3.70000000E-001    1.59223636E+001    2.15624315E-004    2.70377852E-013    2.70377852E-013    2.30618569E-004    2.30618570E-004    8.05781499E-016
   3.80000000E-001    1.59050447E+001    2.15389695E-004   -3.48659626E-013   -3.48659626E-013    2.30618569E-004    2.30618568E-004   -1.66612398E-015
   3.90000000E-001    1.58879845E+001    2.15158582E-004   -4.01945778E-013   -4.01945778E-013    2.30618569E-004    2.30618568E-004   -1.36948878E-015
   4.00000000E-001    1.58711736E+001    2.14931444E-004    2.89877326E-013    2.89877326E-013    2.30618569E-004    2.30618566E-004   -2.64784545E-015
   4.10000000E-001    1.58546029E+001    2.14707540E-004   -2.21331838E-013   -2.21331838E-013    2.30618569E-004    2.30618572E-004    2.22618672E-015
   4.20000000E-001    1.58382643E+001    2.14486651E-004   -1.92229210E-013   -1.92229210E-013    2.30618569E-004    2.30618570E-004    4.38288331E-017
   4.30000000E-001    1.58221497E+001    2.14268545E-004   -3.83534603E-013   -3.83534603E-013    2.30618569E-004    2.30618565E-004   -3.70908875E-015
   4.40000000E-001    1.58062517E+001    2.14053558E-004   -2.19197046E-013   -2.19197046E-013    2.30618569E-004    2.30618569E-004   -6.02773293E-016
   4.50000000E-001    1.57905632E+001    2.13841400E-004    1.20695908E-013    1.20695908E-013    2.30618569E-004    2.30618569E-004   -2.01452653E-016
   4.60000000E-001    1.57750774E+001    2.13631982E-004   -4.09115623E-013   -4.09115623E-013    2.30618569E-004    2.30618568E-004   -1.08991513E-015
   4.70000000E-001    1.57597879E+001    2.13425226E-004   -6.93620646E-013   -6.93620646E-013    2.30618569E-004    2.30618562E-004   -6.50445469E-015
   4.80000000E-001    1.57446888E+001    2.13221081E-004    1.02036840E-013    1.02036840E-013    2.30618569E-004    2.30618572E-004    2.16358710E-015
   4.90000000E-001    1.57297742E+001    2.13019426E-004    7.42606454E-013    7.42606454E-013    2.30618569E-004    2.30618565E-004   -2.63636104E-015
   5.00000000E-001    1.57150387E+001    2.12820187E-004   -2.10524619E-013   -2.10524619E-013    2.30618569E-004    2.30618566E-004   -2.83199964E-015
   5.10000000E-001    1.57004769E+001    2.12623296E-004    5.83051712E-013    5.83051712E-013    2.30618569E-004    2.30618568E-004   -1.78518420E-016
   5.20000000E-001    1.56860840E+001    2.12428683E-004    4.27228008E-013    4.27228008E-013    2.30618569E-004    2.30618575E-004    4.80258489E-015
   5.30000000E-001    1.56718551E+001    2.12236284E-004   -3.04057412E-013   -3.04057412E-013    2.30618569E-004    2.30618562E-004   -5.94441281E-015
   5.40000000E-001    1.56577858E+001    2.12046038E-004   -5.26413873E-013   -5.26413873E-013    2.30618569E-004    2.30618566E-004   -3.10489554E-015
   5.50000000E-001    1.56438716E+001    2.11857885E-004    7.93336719E-013    7.93336719E-013    2.30618569E-004    2.30618566E-004   -2.38945523E-015
   5.60000000E-001    1.56301084E+001    2.11671766E-004   -2.86316463E-013   -2.86316463E-013    2.30618569E-004    2.30618571E-004    1.41683846E-015
   5.70000000E-001    1.56164922E+001    2.11487632E-004   -3.58908057E-014   -3.58908057E-014    2.30618569E-004    2.30618574E-004    4.03503507E-015
   5.80000000E-001    1.56030193E+001    2.11305430E-004    3.01891797E-013    3.01891797E-013    2.30618569E-004    2.30618570E-004    9.40911056E-016
   5.90000000E-001    1.55896859E+001    2.11125111E-004   -1.93467641E-013   -1.93467641E-013    2.30618569E-004    2.30618571E-004    1.24963419E-015
   6.00000000E-001    1.55764885E+001    2.10946629E-004    1.46889034E-013    1.46889034E-013    2.30618569E-004    2.30618566E-004   -2.46531209E-015
   6.10000000E-001    1.55634238E+001    2.10769932E-004    5.61763656E-013    5.61763656E-013    2.30618569E-004    2.30618572E-004    2.33835471E-015
   6.20000000E-001    1.55504886E+001    2.10594969E-004    4.32358396E-014    4.32358396E-014    2.30618569E-004    2.30618571E-004    1.10534279E-015
   6.30000000E-001    1.55376797E+001    2.10421696E-004    4.45360262E-013    4.45360262E-013    2.30618569E-004    2.30618573E-004    3.88773171E-015
   6.40000000E-001    1.55249942E+001    2.10249820E-004   -5.93084132E-013   -5.93084132E-013    2.30618569E-004    2.30618559E-004   -8.77231823E-015
   6.50000000E-001    1.55124291E+001    2.10079576E-004   -1.21468561E-012   -1.21468561E-012    2.30618569E-004    2.30618562E-004   -7.04102704E-015
   6.60000000E-001    1.54999817E+001    2.09910941E-004    7.64227920E-013    7.64227920E-013    2.30618569E-004    2.30618571E-004    2.21931222E-015
   6.70000000E-001    1.54876494E+001    2.09744172E-004    2.84181983E-013    2.84181983E-013    2.30618569E-004    2.30618570E-004    9.91162290E-016
   6.80000000E-001    1.54754295E+001    2.09578882E-004   -6.36501674E-013   -6.36501674E-013    2.30618569E-004    2.30618569E-004   -1.03841806E-015
   6.90000000E-001    1.54633197E+001    2.09415075E-004    4.74547628E-013    4.74547628E-013    2.30618569E-004    2.30618569E-004   -2.20724679E-016
   7.00000000E-001    1.54513174E+001    2.09252710E-004   -7.14359134E-014   -7.14359134E-014    2.30618569E-004    2.30618570E-004    4.93609287E-016
   7.10000000E-001    1.54394205E+001    2.09091772E-004    8.30398502E-013    8.30398502E-013    2.30618569E-004    2.30618573E-004    4.16778522E-015
   7.20000000E-001    1.54276266E+001    2.08932224E-004   -2.43686181E-013   -2.43686181E-013    2.30618569E-004    2.30618565E-004   -3.39858696E-015
   7.30000000E-001    1.54159336E+001    2.08773954E-004   -3.24275058E-013   -3.24275058E-013    2.30618569E-004    2.30618563E-004   -5.52523280E-015
   7.40000000E-001    1.54043394E+001    2.08617784E-004   -4.96328663E-013   -4.96328663E-013    2.30618569E-004    2.30618564E-004   -4.58200777E-015
   7.50000000E-001    1.53928421E+001    2.08461385E-004    6.64376774E-013    6.64376774E-013    2.30618569E-004    2.30618575E-004    5.61929787E-015
   7.60000000E-001    1.53814397E+001    2.08306377E-004    2.47200657E-013    2.47200657E-013    2.30618569E-004    2.30618567E-004   -1.71392424E-015
   7.70000000E-001    1.53701302E+001    2.08152641E-004    9.22849986E-013    9.22849986E-013    2.30618569E-004    2.30618569E-004    1.71130389E-016
   7.80000000E-001    1.53589119E+001    2.08000148E-004    1.51796393E-012    1.51796393E-012    2.30618569E-004    2.30618575E-004    5.74349817E-015
   7.90000000E-001    1.53477830E+001    2.07848880E-004    1.64976815E-013    1.64976815E-013    2.30618569E-004    2.30618570E-004    6.23042293E-016
   8.00000000E-001    1.53367418E+001    2.07698812E-004   -3.43351738E-013   -3.43351738E-013    2.30618569E-004    2.30618577E-004    6.32293626E-015
   8.10000000E-001    1.53257866E+001    2.07549923E-004   -1.35100987E-012   -1.35100987E-012    2.30618569E-004    2.30618562E-004   -7.03303677E-015
   8.20000000E-001    1.53149158E+001    2.07402193E-004    1.99379395E-013    1.99379395E-013    2.30618569E-004    2.30618570E-004    8.80823035E-016
   8.30000000E-001    1.53041279E+001    2.07256205E-004   -2.47942129E-013   -2.47942129E-013    2.30618569E-004    2.30618575E-004    4.41351123E-015
   8.40000000E-001    1.52934214E+001    2.07111316E-004    2.99238309E-013    2.99238309E-013    2.30618569E-004    2.30618568E-004   -4.18428313E-016
   8.50000000E-001    1.52827948E+001    2.06967507E-004    1.55139230E-014    1.55139230E-014    2.30618569E-004    2.30618566E-004   -2.42428193E-015
   8.60000000E-001    1.52722466E+001    2.06824759E-004    1.41769463E-013    1.41769463E-013    2.30618569E-004    2.30618570E-004    3.75401198E-016
   8.70000000E-001    1.52617755E+001    2.06683052E-004   -2.54079483E-012   -2.54079483E-012    2.30618569E-004    2.30618564E-004   -6.41013627E-015
   8.80000000E-001    1.52513802E+001    2.06542368E-004   -7.84971290E-013   -7.84971290E-013    2.30618569E-004    2.30618569E-004   -7.62047998E-016
   8.90000000E-001    1.52410593E+001    2.06402690E-004   -2.61481679E-013   -2.61481679E-013    2.30618569E-004    2.30618569E-004   -1.94292545E-016
   9.00000000E-001    1.52308116E+001    2.06264000E-004    5.31601037E-013    5.31601037E-013    2.30618569E-004    2.30618570E-004    1.29352405E-015
   9.10000000E-001    1.52206358E+001    2.06126280E-004   -1.41232811E-013   -1.41232811E-013    2.30618569E-004    2.30618568E-004   -8.99666549E-016
   9.20000000E-001    1.52105307E+001    2.05989516E-004   -3.80312427E-013   -3.80312427E-013    2.30618569E-004    2.30618572E-004    1.86114191E-015
   9.30000000E-001    1.52004952E+001    2.05853691E-004   -6.46620187E-014   -6.46620187E-014    2.30618569E-004    2.30618572E-004    1.87034030E-015
   9.40000000E-001    1.51905281E+001    2.05718789E-004    7.53711327E-013    7.53711327E-013    2.30618569E-004    2.30618569E-004   -8.59453064E-019
   9.50000000E-001    1.51806283E+001    2.05584658E-004    5.58352531E-013    5.58352531E-013    2.30618569E-004    2.30618567E-004   -1.33249859E-015
   9.60000000E-001    1.51707948E+001    2.05451424E-004   -9.56073140E-013   -9.56073140E-013    2.30618569E-004    2.30618570E-004    1.10232942E-018
   9.70000000E-001    1.51610264E+001    2.05319075E-004    2.11035873E-014    2.11035873E-014    2.30618569E-004    2.30618567E-004   -2.21531692E-015
   9.80000000E-001    1.51513221E+001    2.05187595E-004    4.72907100E-013    4.72907100E-013    2.30618569E-004    2.30618564E-004   -3.86262885E-015
   9.90000000E-001    1.51416811E+001    2.05056971E-004   -2.34946064E-013   -2.34946064E-013    2.30618569E-004    2.30618572E-004    1.84716098E-015
   1.00000000E+000    1.51321022E+001    2.04927191E-004   -5.58980977E-013   -5.58980977E-013    2.30618569E-004    2.30618569E-004   -1.03608774E-015
